IESNA:LM-63-2002
[TEST] 100563R1
[TESTDATE] 1/31/2008
[ISSUEDATE] 1/15/2014
[TESTLAB] ACUITY BRANDS LIGHTING GRANVILLE LAB
[TESTMETHOD] IES LM-46:2004
[MANUFAC] Lithonia Lighting
[LUMCAT] REVX 400M RW A82/GL SCWA (CLEAR)
[LUMINAIRE] 2'X2' RECESSED SQUARE GENERAL AREA LIGHTING WITH REGRESSED WHITE DOOR FRAME AND #8227 ACRYLIC LENS WITH TEMPERED GLASS OVERLAY
[LAMPCAT] MVR400/VBU/PA
[LAMP] 400W CLEAR PULSE-START METAL HALIDE
[BALLAST] 
[BALLASTCAT] 
[DISTRIBUTION] DIRECT, SC-0=1.93, SC-90=1.97
[_LAMPPOSITION] 0 , 0
[_LAMPTYPE] METAL HALIDE PULSE START (250W AND ABOVE)
[_LAMPWATTAGE] 400
[_LAMPLUMENS] 44000
[_MOUNTING] Recessed
[_FAMILY] REV
[_PRODUCTID] fdb2991d-6333-4205-a945-5cbd923c27e0
[_INFOLINK] http://www.lithonia.com/photometrics.aspx?fid=138175
[OTHER] REGRESSED ALUMINUM DOOR; 8227 LENS W/TEMPERED GLASS; SPREAD RE-270
[_TERCAT] Highbay, Nonlinear                                
[_TER] 39
TILT=NONE
1  44000  1  37  5  1  1  2  2  0
1  1  442
0  2.5  5  7.5  10  12.5  15  17.5  20  22.5  25  27.5  30
32.5  35  37.5  40  42.5  45  47.5  50  52.5  55  57.5  60
62.5  65  67.5  70  72.5  75  77.5  80  82.5  85  87.5  90
0  22.5  45  67.5  90
8991  9014.9  9096.7  9105.2  9007.7  9094.7  9275.6  9537.2
9832.4  10025.1  10230.2  10516.2  10875.8  11426.7  12296
12936.5  12927.1  12549.3  11767  10131.4  8163.6  6501.8
4569.4  3276.9  2549.8  1986.9  1508.9  1081.6  742.2  523
380.5  288.6  225.1  171.2  117.5  58  8.8
8991  8979  9183.4  9332.9  9490.1  9614  9719.7  10162.7
10632  10729.4  10262.3  10032.8  10577  11601.8  13274.7
13937.4  14005.6  13727.9  13686.6  13268.5  11569.4  9275.4
6394.5  4018.1  2817.9  2118.8  1540  1098.2  762.3  527.8
384.7  301.9  244.7  186.7  122.5  53.9  6.3
8991  8944.5  9393.7  9823.5  10256.4  10370.8  10210.2
9876.1  9531.1  9257  9168.6  9073.4  8776.7  8583.7  8993.6
9484.8  9055.1  8639  9152.8  10327  9742.3  7395.5  5421.3
4291.1  3042.8  2123  1557.9  1120.8  792.3  562.1  405
305.4  239.9  180.7  119.2  53.4  10.1
8991  9122.3  9566.9  10130.6  10603.5  10777.2  10792.8
10556.6  10283.7  10288.9  10350.2  10370.3  10911  12062.6
13774.1  14346.9  14475.5  14871.2  14979.8  14472.6  12833.7
9806.9  6614.4  4133.7  2883.1  2187.7  1636.8  1179.7  824.3
575.7  414.7  306.8  233.9  175.1  117.3  54.4  10.8
8991  9146.9  9694.6  10238.4  10615.7  10684.4  10605.7
10676  10788  11066.1  11306.9  11622.9  12729.4  14330.8
15457.6  15430.5  14496.6  13400.1  12142  10715.6  8751.8
6939.9  4842.6  3500.5  2741.7  2103.6  1555.8  1121  794.9
533.5  387.5  316.6  261.1  204.6  138.2  63.1  8.8
