IESNA:LM-63-2002
[TEST] 100559R1
[TESTDATE] 1/31/2008
[ISSUEDATE] 1/15/2014
[TESTLAB] ACUITY BRANDS LIGHTING GRANVILLE LAB
[TESTMETHOD] IES LM-46:2004
[MANUFAC] Lithonia Lighting
[LUMCAT] REVX 400M RW T73 SCWA (CLEAR)
[LUMINAIRE] 2'X2' RECESSED SQUARE GENERAL AREA LIGHTING WITH REGRESSED WHITE DOOR FRAME AND #T73 TEMPERED GLASS LENS
[LAMPCAT] MVR400/VBU/PA
[LAMP] 400W CLEAR PULSE-START METAL HALIDE
[BALLAST] 
[BALLASTCAT] 
[DISTRIBUTION] DIRECT, SC-0=1.92, SC-90=1.88
[_LAMPPOSITION] 0 , 0
[_LAMPTYPE] METAL HALIDE PULSE START (250W AND ABOVE)
[_LAMPWATTAGE] 400
[_LAMPLUMENS] 44000
[_MOUNTING] Recessed
[_FAMILY] REV
[_PRODUCTID] 291f1db5-dec4-49ec-aca6-818d7a8078ab
[_INFOLINK] http://www.lithonia.com/photometrics.aspx?fid=138175
[OTHER] REGRESSED ALUMINUM DOOR; CORNING 73 GLASS LENS; SPREAD RE-270
[_TERCAT] Highbay, Nonlinear                                
[_TER] 40
TILT=NONE
1  44000  1  37  5  1  1  2  2  0
1  1  442
0  2.5  5  7.5  10  12.5  15  17.5  20  22.5  25  27.5  30
32.5  35  37.5  40  42.5  45  47.5  50  52.5  55  57.5  60
62.5  65  67.5  70  72.5  75  77.5  80  82.5  85  87.5  90
0  22.5  45  67.5  90
9024.6  9122.3  9223.4  9311.4  9436.7  9591.8  9792.1  10058.4
10430.1  10949.2  11586.2  12252.9  12938.5  13544.6  14014.3
14275.1  13952.6  12804  11319.8  9811.5  8414.1  7122.9
5952.7  4940.1  4079.3  3410.4  2847.4  2388.6  2041.9  1749
1475.6  1247.3  1007.7  734.3  415.5  111  5.5
9024.6  9028.5  8985.1  8930.2  8862.4  8836.9  8858.6  8931.8
9200.4  9685.7  10359.4  11133.4  11823.8  12638.3  13179.2
13411.9  13240  12232.7  10779.3  9323.2  8016.4  6869.2
5818.9  4884.5  4070.1  3341.7  2739.7  2334.8  2046.8  1787.8
1532.8  1252.9  968.6  700.1  401.4  119.3  8
9024.6  8983.2  8979.1  8967  8840.4  8859.2  8778.6  8789.1
8940.6  9324  9908.8  10321.9  10967.6  11709  12501.2  13273.5
13228.6  12710.1  11527.1  10153.1  8897.9  7626.6  6565.4
5450.9  4438.6  3614.2  2890.8  2382.2  2037.3  1811.6  1557.2
1240.6  971.2  697.5  410.8  126.2  5.5
9024.6  9008.5  9004.6  8979.6  8985.4  8902.3  9080.1  9336.4
9996.6  11056.6  11895.5  12835.2  13516.5  14440.2  14960.4
14887  14172.2  12394.3  10579.5  8986.2  7523.2  6298.4
5216.5  4531.9  3943.4  3390.2  2832.5  2281.4  1919.1  1671.4
1492.4  1264.4  981.8  717.7  425.8  127.3  5.8
9024.6  9006.6  9041.8  9002.9  9032.2  9077.6  9282.6  9854.5
10912.7  12045.9  13264.8  14154.3  14997.2  15567  15774.1
15253.6  13916.7  12165.4  10249.1  8493.7  7085.1  6008.2
5273.6  4697  4109.5  3372.9  2629.8  2150  1890.1  1690.7
1475  1213  968.5  720.6  426.8  113.1  7
